$MeshFormat
4.1 0 8
$EndMeshFormat
$PhysicalNames
11
0 1 "DesignNodes"
2 2 "TopZ"
2 3 "BottomZ"
2 4 "FacesX"
2 5 "FacesY"
2 6 "Source"
2 7 "Target"
3 8 "Substrate"
3 9 "Design"
3 10 "Raman"
3 11 "Air"
$EndPhysicalNames
$Entities
24 44 26 5
1 -50 50 -160 0 
2 50 50 -160 0 
3 -50 50 -120 1 1 
4 50 50 -120 1 1 
5 -50 -50 -160 0 
6 50 -50 -160 0 
7 -50 -50 -120 1 1 
8 50 -50 -120 1 1 
9 -50 50 -40 1 1 
10 50 50 -40 1 1 
11 -50 -50 -40 1 1 
12 50 -50 -40 1 1 
13 -50 50 40 0 
14 50 50 40 0 
15 -50 -50 40 0 
16 50 -50 40 0 
17 -50 50 80 0 
18 50 50 80 0 
19 -50 -50 80 0 
20 50 -50 80 0 
21 -50 50 160 0 
22 50 50 160 0 
23 -50 -50 160 0 
24 50 -50 160 0 
1 -50 50 -160 50 50 -160 0 2 1 -2 
2 50 50 -160 50 50 -120 0 2 2 -4 
3 -50 50 -120 50 50 -120 0 2 4 -3 
4 -50 50 -160 -50 50 -120 0 2 3 -1 
5 -50 -50 -160 50 -50 -160 0 2 5 -6 
6 50 -50 -160 50 -50 -120 0 2 6 -8 
7 -50 -50 -120 50 -50 -120 0 2 8 -7 
8 -50 -50 -160 -50 -50 -120 0 2 7 -5 
9 -50 -50 -160 -50 50 -160 0 2 1 -5 
10 50 -50 -160 50 50 -160 0 2 2 -6 
11 -50 -50 -120 -50 50 -120 0 2 3 -7 
12 50 -50 -120 50 50 -120 0 2 4 -8 
13 50 50 -120 50 50 -40 0 2 4 -10 
14 -50 50 -40 50 50 -40 0 2 10 -9 
15 -50 50 -120 -50 50 -40 0 2 9 -3 
16 50 -50 -120 50 -50 -40 0 2 8 -12 
17 -50 -50 -40 50 -50 -40 0 2 12 -11 
18 -50 -50 -120 -50 -50 -40 0 2 11 -7 
19 -50 -50 -40 -50 50 -40 0 2 9 -11 
20 50 -50 -40 50 50 -40 0 2 10 -12 
21 50 50 -40 50 50 40 0 2 10 -14 
22 -50 50 40 50 50 40 0 2 14 -13 
23 -50 50 -40 -50 50 40 0 2 13 -9 
24 50 -50 -40 50 -50 40 0 2 12 -16 
25 -50 -50 40 50 -50 40 0 2 16 -15 
26 -50 -50 -40 -50 -50 40 0 2 15 -11 
27 -50 -50 40 -50 50 40 0 2 13 -15 
28 50 -50 40 50 50 40 0 2 14 -16 
29 50 50 40 50 50 80 0 2 14 -18 
30 -50 50 80 50 50 80 0 2 18 -17 
31 -50 50 40 -50 50 80 0 2 17 -13 
32 50 -50 40 50 -50 80 0 2 16 -20 
33 -50 -50 80 50 -50 80 0 2 20 -19 
34 -50 -50 40 -50 -50 80 0 2 19 -15 
35 -50 -50 80 -50 50 80 0 2 17 -19 
36 50 -50 80 50 50 80 0 2 18 -20 
37 50 50 80 50 50 160 0 2 18 -22 
38 -50 50 160 50 50 160 0 2 22 -21 
39 -50 50 80 -50 50 160 0 2 21 -17 
40 50 -50 80 50 -50 160 0 2 20 -24 
41 -50 -50 160 50 -50 160 0 2 24 -23 
42 -50 -50 80 -50 -50 160 0 2 23 -19 
43 -50 -50 160 -50 50 160 0 2 21 -23 
44 50 -50 160 50 50 160 0 2 22 -24 
1 -50 50 -160 50 50 -120 1 5 4 1 2 3 4 
2 50 -50 -160 50 50 -120 1 4 4 10 6 -12 -2 
3 -50 -50 -160 50 -50 -120 1 5 4 -5 -8 -7 -6 
4 -50 -50 -160 -50 50 -120 1 4 4 -9 -4 11 8 
5 -50 -50 -120 50 50 -120 0 4 -3 12 7 -11 
6 -50 -50 -160 50 50 -160 1 3 4 -1 9 5 -10 
7 -50 50 -120 50 50 -40 1 5 4 -3 13 14 15 
8 50 -50 -120 50 50 -40 1 4 4 12 16 -20 -13 
9 -50 -50 -120 50 -50 -40 1 5 4 7 -18 -17 -16 
10 -50 -50 -120 -50 50 -40 1 4 4 -11 -15 19 18 
11 -50 -50 -40 50 50 -40 0 4 -14 20 17 -19 
12 -50 50 -40 50 50 40 1 5 4 -14 21 22 23 
13 50 -50 -40 50 50 40 1 4 4 20 24 -28 -21 
14 -50 -50 -40 50 -50 40 1 5 4 17 -26 -25 -24 
15 -50 -50 -40 -50 50 40 1 4 4 -19 -23 27 26 
16 -50 -50 40 50 50 40 1 7 4 -22 28 25 -27 
17 -50 50 40 50 50 80 1 5 4 -22 29 30 31 
18 50 -50 40 50 50 80 1 4 4 28 32 -36 -29 
19 -50 -50 40 50 -50 80 1 5 4 25 -34 -33 -32 
20 -50 -50 40 -50 50 80 1 4 4 -27 -31 35 34 
21 -50 -50 80 50 50 80 1 6 4 -30 36 33 -35 
22 -50 50 80 50 50 160 1 5 4 -30 37 38 39 
23 50 -50 80 50 50 160 1 4 4 36 40 -44 -37 
24 -50 -50 80 50 -50 160 1 5 4 33 -42 -41 -40 
25 -50 -50 80 -50 50 160 1 4 4 -35 -39 43 42 
26 -50 -50 160 50 50 160 1 2 4 -38 44 41 -43 
1 -50 -50 -160 50 50 -120 1 8 6 1 2 5 3 4 6 
2 -50 -50 -120 50 50 -40 1 9 6 7 8 11 9 10 5 
3 -50 -50 -40 50 50 40 1 10 6 12 13 16 14 15 11 
4 -50 -50 40 50 50 80 1 11 6 17 18 21 19 20 16 
5 -50 -50 80 50 50 160 1 11 6 22 23 26 24 25 21 
$EndEntities
$Nodes
95 252 1 252
0 1 0 1
1
-50 50 -160
0 2 0 1
2
50 50 -160
0 3 0 1
3
-50 50 -120
0 4 0 1
4
50 50 -120
0 5 0 1
5
-50 -50 -160
0 6 0 1
6
50 -50 -160
0 7 0 1
7
-50 -50 -120
0 8 0 1
8
50 -50 -120
0 9 0 1
9
-50 50 -40
0 10 0 1
10
50 50 -40
0 11 0 1
11
-50 -50 -40
0 12 0 1
12
50 -50 -40
0 13 0 1
13
-50 50 40
0 14 0 1
14
50 50 40
0 15 0 1
15
-50 -50 40
0 16 0 1
16
50 -50 40
0 17 0 1
17
-50 50 80
0 18 0 1
18
50 50 80
0 19 0 1
19
-50 -50 80
0 20 0 1
20
50 -50 80
0 21 0 1
21
-50 50 160
0 22 0 1
22
50 50 160
0 23 0 1
23
-50 -50 160
0 24 0 1
24
50 -50 160
1 1 0 1
25
-9.783285292996879e-11 50 -160
1 2 0 1
26
50 50 -138.1286706673287
1 3 0 3
27
28
29
25.00000000001707 50 -120
9.78550573904613e-11 50 -120
-24.99999999996996 50 -120
1 4 0 1
30
-50 50 -138.1286706673243
1 5 0 1
31
0 -50 -160
1 6 0 1
32
50 -50 -138.128670667329
1 7 0 3
33
34
35
25 -50 -120
0 -50 -120
-25 -50 -120
1 8 0 1
36
-50 -50 -138.12867066732
1 9 0 1
37
-50 0 -160
1 10 0 1
38
50 9.783285292996879e-11 -160
1 11 0 3
39
40
41
-50 25 -120
-50 0 -120
-50 -25 -120
1 12 0 3
42
43
44
50 25.00000000001707 -120
50 9.78550573904613e-11 -120
50 -24.99999999996996 -120
1 13 0 2
45
46
50 50 -93.33333333333333
50 50 -66.66666666666676
1 14 0 3
47
48
49
25.00000000001707 50 -40
9.78550573904613e-11 50 -40
-24.99999999996996 50 -40
1 15 0 2
50
51
-50 50 -66.66666666666364
-50 50 -93.33333333332712
1 16 0 2
52
53
50 -50 -93.33333333333644
50 -50 -66.66666666667298
1 17 0 3
54
55
56
25 -50 -40
0 -50 -40
-25 -50 -40
1 18 0 2
57
58
-50 -50 -66.66666666666055
-50 -50 -93.33333333332091
1 19 0 3
59
60
61
-50 25 -40
-50 0 -40
-50 -25 -40
1 20 0 3
62
63
64
50 25.00000000001707 -40
50 9.78550573904613e-11 -40
50 -24.99999999996996 -40
1 21 0 2
65
66
50 50 -17.72426562114449
50 50 8.686535512732219
1 22 0 1
67
9.783285292996879e-11 50 40
1 23 0 2
68
69
-50 50 8.686535512731911
-50 50 -17.72426562113918
1 24 0 2
70
71
50 -50 -17.72426562114085
50 -50 8.686535512717137
1 25 0 1
72
0 -50 40
1 26 0 2
73
74
-50 -50 8.686535512731606
-50 -50 -17.72426562113388
1 27 0 1
75
-50 0 40
1 28 0 1
76
50 9.783285292996879e-11 40
1 30 0 1
77
9.783285292996879e-11 50 80
1 33 0 1
78
0 -50 80
1 35 0 1
79
-50 0 80
1 36 0 1
80
50 9.783285292996879e-11 80
1 37 0 1
81
50 50 120
1 38 0 1
82
9.783285292996879e-11 50 160
1 39 0 1
83
-50 50 120
1 40 0 1
84
50 -50 120
1 41 0 1
85
0 -50 160
1 42 0 1
86
-50 -50 120
1 43 0 1
87
-50 0 160
1 44 0 1
88
50 9.783285292996879e-11 160
2 1 0 4
89
90
91
92
26.27277545545857 50 -140.5729258502709
-26.27277545546753 50 -140.5729258502473
37.81819386386891 50 -129.6753991293999
-37.81819386385937 50 -129.6753991293929
2 2 0 4
93
94
95
96
50 -26.27277545542698 -140.5729258502713
50 26.27277545549877 -140.5729258502476
50 37.81819386387896 -129.675399129394
50 -37.81819386384924 -129.6753991294
2 3 0 4
97
98
99
100
26.27277545545857 -49.99999999999999 -140.5729258502709
-26.27277545546753 -49.99999999999999 -140.5729258502473
37.81819386386891 -49.99999999999999 -129.6753991293999
-37.81819386385937 -49.99999999999999 -129.6753991293929
2 4 0 4
101
102
103
104
-49.99999999999999 -26.27277545542698 -140.5729258502713
-49.99999999999999 26.27277545549877 -140.5729258502476
-49.99999999999999 37.81819386387896 -129.675399129394
-49.99999999999999 -37.81819386384924 -129.6753991294
2 5 0 13
105
106
107
108
109
110
111
112
113
114
115
116
117
-1.218009650810521e-12 -1.215916256569471e-12 -120
20.83333333333428 20.83333333333428 -120
-20.83333333333334 -20.83333333333334 -120
-20.833333333335 20.83333333333 -120
20.83333333332999 -20.833333333335 -120
27.97619047618925 -1.092548998149785e-12 -120
-1.093644370831239e-12 27.97619047618925 -120
-27.97619047619187 -1.950594207214631e-12 -120
-1.956528822553468e-12 -27.97619047619187 -120
36.45833333333783 36.45833333333783 -120
-34.80320699708455 -34.80320699708455 -120
33.85416666667532 -33.85416666666467 -120
-33.85416666666468 33.85416666667533 -120
2 6 0 5
118
119
120
121
122
-2.445806520275558e-11 1.63051794288549e-11 -160
24.99999999995108 25.00000000004892 -160
-25.00000000004892 25 -160
-25 -25 -160
25.00000000004892 -24.99999999995108 -160
2 7 0 11
123
124
125
126
127
128
129
130
131
132
133
-10.09284617903476 50 -79.29917391406734
17.60850628607388 50 -89.37912277808442
13.34813967235499 50 -61.94239210264751
-26.95172454946183 50 -96.77765843178852
-26.95172454946092 50 -63.22234156821112
-1.027559057727169 50 -100.0800289669628
-9.011519746632032 50 -57.46743459072205
32.73828057311442 50 -76.38159939832614
34.09140274703226 50 -101.1399189354666
-32.7992590555915 50 -79.85983478281155
36.64548210358224 50 -54.28731040023121
2 8 0 11
134
135
136
137
138
139
140
141
142
143
144
50 -10.09284617903474 -80.70082608593265
50 17.60850628607388 -70.62087722191555
50 13.34813967235499 -98.05760789735248
50 -26.95172454946185 -63.22234156821145
50 -26.95172454946092 -96.77765843178888
50 -1.027559057727154 -59.91997103303722
50 -9.011519746632024 -102.532565409278
50 32.73828057311442 -83.61840060167387
50 34.09140274703228 -58.86008106453337
50 -32.7992590555915 -80.1401652171885
50 36.64548210358224 -105.7126895997688
2 9 0 11
145
146
147
148
149
150
151
152
153
154
155
-10.09284617903476 -50 -79.29917391406731
17.60850628607388 -50 -89.37912277808439
13.34813967235499 -50 -61.9423921026475
-26.95172454946183 -50 -96.7776584317885
-26.95172454946092 -50 -63.22234156821111
-1.027559057727169 -50 -100.0800289669627
-9.011519746632032 -50 -57.46743459072204
32.73828057311442 -50 -76.38159939832612
34.09140274703226 -50 -101.1399189354666
-32.7992590555915 -50 -79.85983478281152
36.64548210358224 -50 -54.28731040023119
2 10 0 11
156
157
158
159
160
161
162
163
164
165
166
-50 -10.09284617903474 -80.70082608593262
-50 17.60850628607388 -70.62087722191552
-50 13.34813967235499 -98.05760789735245
-50 -26.95172454946185 -63.22234156821144
-50 -26.95172454946092 -96.77765843178885
-50 -1.027559057727154 -59.91997103303721
-50 -9.011519746632024 -102.5325654092779
-50 32.73828057311442 -83.61840060167384
-50 34.09140274703228 -58.86008106453335
-50 -32.7992590555915 -80.14016521718847
-50 36.64548210358224 -105.7126895997688
2 11 0 13
167
168
169
170
171
172
173
174
175
176
177
178
179
-1.218009650810521e-12 -1.215916256569471e-12 -40
20.83333333333428 20.83333333333428 -40
-20.83333333333334 -20.83333333333334 -40
-20.833333333335 20.83333333333 -40
20.83333333332999 -20.833333333335 -40
27.97619047618925 -1.092548998149785e-12 -40
-1.093644370831239e-12 27.97619047618925 -40
-27.97619047619187 -1.950594207214631e-12 -40
-1.956528822553468e-12 -27.97619047619187 -40
36.45833333333783 36.45833333333783 -40
-34.80320699708455 -34.80320699708455 -40
33.85416666667532 -33.85416666666467 -40
-33.85416666666468 33.85416666667533 -40
2 12 0 8
180
181
182
183
184
185
186
187
-10.4673013519313 50 2.137054228941876
16.46825416026206 50 -4.630921437912764
23.30839264750501 50 18.37332346581649
-28.06830124548438 50 -18.27696130275345
-25.52275649654015 50 23.66408119048488
29.92085827854417 50 -21.0663092335252
1.051618311414456 50 -20.04520517750581
33.93950101726224 50 -3.272327462806746
2 13 0 8
188
189
190
191
192
193
194
195
50 -10.46730135193153 2.137054228938824
50 16.46825416026235 -4.630921437913725
50 23.30839264750493 18.3733234658161
50 -28.06830124548535 -18.27696130275458
50 -25.52275649654302 23.66408119048293
50 29.92085827854449 -21.06630923352559
50 1.051618311415662 -20.04520517750672
50 33.93950101726236 -3.272327462807096
2 14 0 8
196
197
198
199
200
201
202
203
-10.4673013519313 -50 2.137054228941875
16.46825416026206 -50 -4.630921437912762
23.30839264750501 -50 18.37332346581649
-28.06830124548438 -50 -18.27696130275344
-25.52275649654015 -50 23.66408119048487
29.92085827854417 -50 -21.06630923352519
1.051618311414456 -50 -20.0452051775058
33.93950101726224 -50 -3.272327462806746
2 15 0 8
204
205
206
207
208
209
210
211
-50 -10.46730135193153 2.137054228938823
-50 16.46825416026235 -4.630921437913723
-50 23.30839264750493 18.3733234658161
-50 -28.06830124548535 -18.27696130275457
-50 -25.52275649654302 23.66408119048292
-50 29.92085827854449 -21.06630923352558
-50 1.051618311415662 -20.04520517750671
-50 33.93950101726236 -3.272327462807095
2 16 0 5
212
213
214
215
216
4.78563355620377e-23 4.78563355620377e-23 40
-25 -25 40
25.00000000004892 25.00000000004892 40
-24.99999999995108 25.00000000004892 40
25 -24.99999999997554 40
2 17 0 2
217
218
-24.99999999995108 50 60
25.00000000004891 50 60
2 18 0 2
219
220
50 -24.99999999995108 60
50 25.00000000004891 60
2 19 0 2
221
222
-24.99999999995108 -50 60
25.00000000004891 -50 60
2 20 0 2
223
224
-50 -24.99999999995108 60
-50 25.00000000004891 60
2 21 0 5
225
226
227
228
229
4.785633556213133e-23 -4.785633556222497e-23 80
-25 -25 80
25.00000000004892 25.00000000004892 80
-24.99999999995108 25.00000000004892 80
25 -24.99999999997554 80
2 22 0 3
230
231
232
-10.3759147973819 50 120
23.51772645755181 50 134.2857142857143
22.62836233205355 50 106.8571428571428
2 23 0 3
233
234
235
50 -10.3759147973819 120
50 23.51772645755181 134.2857142857143
50 22.62836233205355 106.8571428571428
2 24 0 3
236
237
238
-10.3759147973819 -50 120
23.51772645755181 -50 134.2857142857143
22.62836233205355 -50 106.8571428571428
2 25 0 3
239
240
241
-50 -10.3759147973819 120
-50 23.51772645755181 134.2857142857143
-50 22.62836233205355 106.8571428571428
2 26 0 5
242
243
244
245
246
4.78563355620377e-23 4.78563355620377e-23 160
-25 -25 160
25.00000000004892 25.00000000004892 160
-24.99999999995108 25.00000000004892 160
25 -24.99999999997554 160
3 1 0 0
3 2 0 4
247
248
249
250
-8.340066787734569 -8.340066787734578 -80
15.09059606602386 17.23123232550699 -74.46166421391771
-21.39807778137101 21.39106960191316 -81.52245505770975
21.39106960191317 -21.39807778137101 -78.47754494229018
3 3 0 1
251
10.41666666666658 10.41666666666648 -2.715740335405598
3 4 0 0
3 5 0 1
252
11.60049464768675 11.60049464768675 120.9434229423221
$EndNodes
$Elements
37 1266 1 1266
0 3 15 1
1 3 
0 4 15 1
2 4 
0 7 15 1
3 7 
0 8 15 1
4 8 
0 9 15 1
5 9 
0 10 15 1
6 10 
0 11 15 1
7 11 
0 12 15 1
8 12 
2 1 2 16
9 1 25 90 
10 30 1 90 
11 25 2 89 
12 2 26 89 
13 29 3 92 
14 3 30 92 
15 26 4 91 
16 4 27 91 
17 28 25 89 
18 25 28 90 
19 89 26 91 
20 27 28 89 
21 27 89 91 
22 28 29 90 
23 90 29 92 
24 30 90 92 
2 2 2 16
25 26 2 94 
26 2 38 94 
27 4 26 95 
28 42 4 95 
29 6 32 93 
30 38 6 93 
31 32 8 96 
32 8 44 96 
33 26 94 95 
34 93 32 96 
35 43 38 93 
36 38 43 94 
37 43 42 94 
38 94 42 95 
39 44 43 93 
40 44 93 96 
2 3 2 16
41 5 31 98 
42 36 5 98 
43 31 6 97 
44 6 32 97 
45 35 7 100 
46 7 36 100 
47 32 8 99 
48 8 33 99 
49 34 31 97 
50 31 34 98 
51 97 32 99 
52 33 34 97 
53 33 97 99 
54 34 35 98 
55 98 35 100 
56 36 98 100 
2 4 2 16
57 30 1 102 
58 1 37 102 
59 3 30 103 
60 39 3 103 
61 5 36 101 
62 37 5 101 
63 36 7 104 
64 7 41 104 
65 30 102 103 
66 101 36 104 
67 40 37 101 
68 37 40 102 
69 40 39 102 
70 102 39 103 
71 41 40 101 
72 41 101 104 
2 6 2 16
73 1 120 25 
74 37 120 1 
75 25 119 2 
76 2 119 38 
77 31 121 5 
78 5 121 37 
79 6 122 31 
80 38 122 6 
81 118 119 25 
82 25 120 118 
83 118 121 31 
84 31 122 118 
85 119 122 38 
86 37 121 120 
87 118 122 119 
88 120 121 118 
2 7 2 34
89 29 126 3 
90 3 126 51 
91 4 131 27 
92 45 131 4 
93 9 127 49 
94 50 127 9 
95 10 133 46 
96 47 133 10 
97 27 128 28 
98 124 128 27 
99 27 131 124 
100 28 128 29 
101 29 128 126 
102 46 130 45 
103 130 131 45 
104 46 133 130 
105 48 125 47 
106 125 133 47 
107 49 129 48 
108 48 129 125 
109 127 129 49 
110 51 132 50 
111 50 132 127 
112 126 132 51 
113 124 125 123 
114 123 128 124 
115 125 129 123 
116 126 128 123 
117 123 132 126 
118 123 129 127 
119 127 132 123 
120 124 130 125 
121 124 131 130 
122 130 133 125 
2 8 2 34
123 4 42 144 
124 45 4 144 
125 44 8 138 
126 8 52 138 
127 10 46 142 
128 62 10 142 
129 53 12 137 
130 12 64 137 
131 42 43 136 
132 42 136 144 
133 43 44 140 
134 136 43 140 
135 44 138 140 
136 46 45 141 
137 141 45 144 
138 46 141 142 
139 52 53 143 
140 138 52 143 
141 53 137 143 
142 63 62 139 
143 62 135 139 
144 135 62 142 
145 64 63 139 
146 137 64 139 
147 134 135 136 
148 135 134 139 
149 134 136 140 
150 134 137 139 
151 137 134 143 
152 138 134 140 
153 134 138 143 
154 136 135 141 
155 141 135 142 
156 136 141 144 
2 9 2 34
157 35 7 148 
158 7 58 148 
159 8 33 153 
160 52 8 153 
161 11 56 149 
162 57 11 149 
163 12 53 155 
164 54 12 155 
165 33 34 150 
166 146 33 150 
167 33 146 153 
168 34 35 150 
169 35 148 150 
170 53 52 152 
171 152 52 153 
172 53 152 155 
173 55 54 147 
174 147 54 155 
175 56 55 151 
176 55 147 151 
177 149 56 151 
178 58 57 154 
179 57 149 154 
180 148 58 154 
181 146 145 147 
182 145 146 150 
183 147 145 151 
184 148 145 150 
185 145 148 154 
186 145 149 151 
187 149 145 154 
188 146 147 152 
189 146 152 153 
190 152 147 155 
2 10 2 34
191 51 3 166 
192 3 39 166 
193 7 58 160 
194 41 7 160 
195 9 50 164 
196 59 9 164 
197 57 11 159 
198 11 61 159 
199 50 51 163 
200 50 163 164 
201 163 51 166 
202 58 57 165 
203 57 159 165 
204 160 58 165 
205 39 40 158 
206 39 158 166 
207 40 41 162 
208 158 40 162 
209 41 160 162 
210 60 59 161 
211 59 157 161 
212 157 59 164 
213 61 60 161 
214 159 61 161 
215 156 157 158 
216 157 156 161 
217 156 158 162 
218 156 159 161 
219 159 156 165 
220 160 156 162 
221 156 160 165 
222 158 157 163 
223 163 157 164 
224 158 163 166 
2 12 2 26
225 49 183 9 
226 9 183 69 
227 10 185 47 
228 65 185 10 
229 13 184 67 
230 68 184 13 
231 14 182 66 
232 67 182 14 
233 47 186 48 
234 185 186 47 
235 48 186 49 
236 49 186 183 
237 66 187 65 
238 65 187 185 
239 182 187 66 
240 180 182 67 
241 67 184 180 
242 69 183 68 
243 68 183 180 
244 180 184 68 
245 181 182 180 
246 180 186 181 
247 183 186 180 
248 181 187 182 
249 181 186 185 
250 185 187 181 
2 13 2 26
251 10 62 193 
252 65 10 193 
253 64 12 191 
254 12 70 191 
255 14 66 190 
256 76 14 190 
257 71 16 192 
258 16 76 192 
259 62 63 194 
260 193 62 194 
261 63 64 194 
262 64 191 194 
263 66 65 195 
264 65 193 195 
265 190 66 195 
266 70 71 191 
267 71 188 191 
268 188 71 192 
269 188 76 190 
270 76 188 192 
271 189 188 190 
272 188 189 194 
273 191 188 194 
274 189 190 195 
275 189 193 194 
276 193 189 195 
2 14 2 26
277 56 11 199 
278 11 74 199 
279 12 54 201 
280 70 12 201 
281 15 72 200 
282 73 15 200 
283 16 71 198 
284 72 16 198 
285 54 55 202 
286 201 54 202 
287 55 56 202 
288 56 199 202 
289 71 70 203 
290 70 201 203 
291 198 71 203 
292 196 72 198 
293 72 196 200 
294 74 73 199 
295 73 196 199 
296 196 73 200 
297 197 196 198 
298 196 197 202 
299 199 196 202 
300 197 198 203 
301 197 201 202 
302 201 197 203 
2 15 2 26
303 69 9 209 
304 9 59 209 
305 11 74 207 
306 61 11 207 
307 13 68 206 
308 75 13 206 
309 73 15 208 
310 15 75 208 
311 68 69 211 
312 206 68 211 
313 69 209 211 
314 74 73 207 
315 73 204 207 
316 204 73 208 
317 59 60 210 
318 209 59 210 
319 60 61 210 
320 61 207 210 
321 204 75 206 
322 75 204 208 
323 205 204 206 
324 204 205 210 
325 207 204 210 
326 205 206 211 
327 205 209 210 
328 209 205 211 
2 16 2 16
329 67 215 13 
330 13 215 75 
331 14 214 67 
332 76 214 14 
333 15 213 72 
334 75 213 15 
335 72 216 16 
336 16 216 76 
337 214 215 67 
338 72 213 212 
339 212 216 72 
340 212 214 76 
341 76 216 212 
342 212 213 75 
343 75 215 212 
344 212 215 214 
2 17 2 8
345 13 217 17 
346 67 217 13 
347 18 218 14 
348 14 218 67 
349 17 217 77 
350 77 218 18 
351 77 217 67 
352 67 218 77 
2 18 2 8
353 18 14 220 
354 14 76 220 
355 16 20 219 
356 76 16 219 
357 80 18 220 
358 20 80 219 
359 80 76 219 
360 76 80 220 
2 19 2 8
361 15 19 221 
362 72 15 221 
363 20 16 222 
364 16 72 222 
365 19 78 221 
366 78 20 222 
367 78 72 221 
368 72 78 222 
2 20 2 8
369 17 13 224 
370 13 75 224 
371 15 19 223 
372 75 15 223 
373 79 17 224 
374 19 79 223 
375 79 75 223 
376 75 79 224 
2 21 2 16
377 77 228 17 
378 17 228 79 
379 18 227 77 
380 80 227 18 
381 19 226 78 
382 79 226 19 
383 78 229 20 
384 20 229 80 
385 227 228 77 
386 78 226 225 
387 225 229 78 
388 225 227 80 
389 80 229 225 
390 225 226 79 
391 79 228 225 
392 225 228 227 
2 22 2 12
393 77 230 17 
394 17 230 83 
395 18 232 77 
396 81 232 18 
397 21 230 82 
398 83 230 21 
399 22 231 81 
400 82 231 22 
401 77 232 230 
402 231 232 81 
403 230 231 82 
404 230 232 231 
2 23 2 12
405 18 80 235 
406 81 18 235 
407 80 20 233 
408 20 84 233 
409 22 81 234 
410 88 22 234 
411 84 24 233 
412 24 88 233 
413 80 233 235 
414 234 81 235 
415 233 88 234 
416 233 234 235 
2 24 2 12
417 78 19 236 
418 19 86 236 
419 20 78 238 
420 84 20 238 
421 23 85 236 
422 86 23 236 
423 24 84 237 
424 85 24 237 
425 78 236 238 
426 237 84 238 
427 236 85 237 
428 236 237 238 
2 25 2 12
429 83 17 241 
430 17 79 241 
431 19 86 239 
432 79 19 239 
433 21 83 240 
434 87 21 240 
435 86 23 239 
436 23 87 239 
437 240 83 241 
438 79 239 241 
439 239 87 240 
440 239 240 241 
2 26 2 16
441 82 245 21 
442 21 245 87 
443 22 244 82 
444 88 244 22 
445 23 243 85 
446 87 243 23 
447 85 246 24 
448 24 246 88 
449 244 245 82 
450 85 243 242 
451 242 246 85 
452 242 244 88 
453 88 246 242 
454 242 243 87 
455 87 245 242 
456 242 245 244 
3 1 4 139
457 100 101 104 115 
458 95 114 91 89 
459 97 96 116 99 
460 90 92 103 117 
461 100 101 36 104 
462 91 26 95 89 
463 99 97 96 32 
464 103 90 30 92 
465 89 94 114 106 
466 105 113 118 109 
467 118 110 105 109 
468 110 105 106 118 
469 105 113 107 118 
470 105 111 106 118 
471 105 107 112 118 
472 105 112 108 118 
473 108 111 105 118 
474 101 100 98 115 
475 114 95 94 89 
476 93 96 116 97 
477 90 103 102 117 
478 106 119 94 110 
479 122 109 113 97 
480 107 113 98 121 
481 101 107 121 112 
482 120 108 111 90 
483 108 120 112 102 
484 119 89 111 106 
485 110 109 122 93 
486 107 115 101 121 
487 107 98 115 121 
488 113 118 109 122 
489 106 119 110 118 
490 121 107 113 118 
491 109 118 110 122 
492 111 108 120 118 
493 112 120 108 118 
494 107 121 112 118 
495 111 119 106 118 
496 101 100 36 98 
497 94 95 26 89 
498 97 93 96 32 
499 90 103 30 102 
500 116 33 109 97 
501 102 39 108 117 
502 109 44 116 93 
503 90 108 29 117 
504 107 101 115 41 
505 35 98 115 107 
506 116 109 122 97 
507 108 120 102 117 
508 116 122 109 93 
509 120 108 90 117 
510 94 106 110 42 
511 89 27 111 106 
512 108 112 39 102 
513 33 113 109 97 
514 98 35 113 107 
515 101 107 112 41 
516 111 108 29 90 
517 109 110 44 93 
518 89 114 27 106 
519 106 94 114 42 
520 98 101 115 121 
521 118 31 113 121 
522 31 118 113 122 
523 120 121 112 37 
524 121 120 112 118 
525 118 119 110 122 
526 38 110 119 122 
527 119 111 25 118 
528 111 120 25 118 
529 122 113 31 97 
530 112 121 101 37 
531 110 119 94 38 
532 113 31 98 121 
533 37 112 120 102 
534 89 111 25 119 
535 111 25 120 90 
536 38 110 122 93 
537 116 122 93 97 
538 102 120 90 117 
539 111 25 28 89 
540 40 112 37 102 
541 31 98 34 113 
542 34 31 113 97 
543 101 40 112 37 
544 43 110 94 38 
545 38 43 110 93 
546 111 28 25 90 
547 94 89 119 106 
548 43 94 110 42 
549 112 40 39 102 
550 28 27 111 89 
551 33 34 113 97 
552 35 34 98 113 
553 111 29 28 90 
554 112 40 101 41 
555 44 110 43 93 
556 25 2 89 119 
557 122 6 38 93 
558 5 101 121 37 
559 31 5 98 121 
560 120 1 37 102 
561 122 31 6 97 
562 2 94 119 38 
563 120 25 1 90 
564 91 114 27 89 
565 94 95 114 42 
566 98 5 36 101 
567 94 26 2 89 
568 6 93 97 32 
569 30 1 90 102 
570 115 101 104 41 
571 115 100 98 35 
572 96 8 116 99 
573 103 92 3 117 
574 4 42 114 95 
575 114 27 4 91 
576 116 33 97 99 
577 96 116 44 93 
578 102 103 39 117 
579 92 90 29 117 
580 7 100 104 115 
581 95 114 4 91 
582 92 29 3 117 
583 116 44 8 96 
584 3 39 103 117 
585 8 33 116 99 
586 7 100 115 35 
587 115 104 7 41 
588 95 4 26 91 
589 101 98 5 121 
590 89 2 94 119 
591 122 6 93 97 
592 90 1 120 102 
593 100 36 7 104 
594 99 96 8 32 
595 3 30 92 103 
3 2 4 298
596 165 159 154 247 
597 154 148 165 247 
598 105 248 247 250 
599 140 134 136 250 
600 140 136 110 250 
601 131 136 141 248 
602 144 141 131 136 
603 105 110 248 250 
604 247 248 105 249 
605 131 106 136 248 
606 151 145 247 250 
607 162 156 247 249 
608 142 176 133 248 
609 136 248 110 250 
610 111 105 248 249 
611 134 248 136 250 
612 151 147 145 250 
613 162 158 156 249 
614 175 151 247 250 
615 112 162 247 249 
616 170 248 167 249 
617 167 248 247 249 
618 105 247 109 250 
619 170 167 247 249 
620 151 149 169 247 
621 107 162 160 247 
622 124 131 141 248 
623 159 149 154 247 
624 165 148 160 247 
625 112 158 162 249 
626 175 147 151 250 
627 131 124 106 248 
628 105 109 110 250 
629 149 145 154 247 
630 165 160 156 247 
631 247 248 167 250 
632 165 156 159 247 
633 148 154 145 247 
634 106 105 110 248 
635 169 175 151 247 
636 162 107 112 247 
637 142 168 176 248 
638 170 173 248 249 
639 151 145 149 247 
640 156 160 162 247 
641 142 133 130 248 
642 106 111 105 248 
643 129 248 173 249 
644 170 173 167 248 
645 109 247 113 250 
646 170 247 174 249 
647 159 169 149 247 
648 107 160 148 247 
649 172 167 248 250 
650 123 248 129 249 
651 109 105 113 247 
652 170 167 174 247 
653 112 247 105 249 
654 175 247 167 250 
655 106 110 136 248 
656 159 161 169 247 
657 148 150 107 247 
658 153 138 116 250 
659 179 164 127 249 
660 158 117 166 249 
661 155 147 178 250 
662 108 105 111 249 
663 172 171 167 250 
664 108 112 105 249 
665 175 167 171 250 
666 111 248 128 249 
667 110 109 140 250 
668 170 129 173 249 
669 174 247 161 249 
670 150 113 247 250 
671 169 161 174 247 
672 113 107 150 247 
673 125 130 133 248 
674 156 161 159 247 
675 148 145 150 247 
676 156 161 247 249 
677 145 150 247 250 
678 130 124 141 248 
679 123 125 129 248 
680 109 116 138 250 
681 179 127 170 249 
682 117 126 166 249 
683 155 178 137 250 
684 117 158 108 249 
685 178 147 171 250 
686 109 138 140 250 
687 129 170 127 249 
688 164 163 132 249 
689 143 153 152 250 
690 128 248 123 249 
691 139 172 248 250 
692 109 113 146 250 
693 157 170 174 249 
694 134 139 248 250 
695 173 129 125 248 
696 135 142 130 248 
697 136 134 135 248 
698 159 177 149 169 
699 148 115 160 107 
700 130 131 141 124 
701 130 142 135 141 
702 168 142 135 248 
703 163 158 166 249 
704 147 155 152 250 
705 174 167 169 247 
706 167 175 169 247 
707 113 105 107 247 
708 112 107 105 247 
709 150 146 113 250 
710 174 161 157 249 
711 135 130 141 248 
712 33 146 153 116 
713 157 179 164 59 
714 117 108 126 249 
715 178 171 137 250 
716 108 158 112 249 
717 175 171 147 250 
718 156 157 161 249 
719 145 146 150 250 
720 141 136 135 248 
721 163 166 126 249 
722 155 137 152 250 
723 108 128 126 249 
724 139 137 171 250 
725 111 128 108 249 
726 139 171 172 250 
727 132 127 164 249 
728 143 138 153 250 
729 123 128 124 248 
730 135 134 139 248 
731 146 33 109 116 
732 157 170 179 59 
733 176 62 168 142 
734 114 131 27 106 
735 146 145 147 250 
736 156 158 157 249 
737 107 115 160 162 
738 151 149 177 169 
739 164 157 163 249 
740 152 153 146 250 
741 129 179 127 170 
742 116 140 109 138 
743 172 167 168 248 
744 124 27 131 106 
745 62 135 168 142 
746 125 123 124 248 
747 168 167 173 248 
748 107 115 162 41 
749 151 177 56 169 
750 168 173 125 248 
751 140 138 134 250 
752 123 129 127 249 
753 135 62 168 139 
754 128 27 124 106 
755 125 47 176 133 
756 144 114 42 136 
757 163 126 132 249 
758 152 137 143 250 
759 125 124 130 248 
760 44 140 109 116 
761 129 49 179 170 
762 168 125 47 176 
763 42 114 106 136 
764 56 149 177 151 
765 162 115 160 41 
766 27 128 111 106 
767 168 62 172 139 
768 50 163 132 164 
769 152 143 52 153 
770 178 171 64 137 
771 117 108 29 126 
772 35 115 148 107 
773 169 159 177 61 
774 57 165 159 154 
775 58 148 165 154 
776 128 123 126 249 
777 134 137 139 250 
778 108 39 158 117 
779 171 54 147 178 
780 171 139 64 137 
781 128 29 108 126 
782 148 150 35 107 
783 169 159 61 161 
784 49 179 127 129 
785 44 140 116 138 
786 64 172 139 171 
787 128 108 29 111 
788 61 174 169 161 
789 113 35 150 107 
790 117 39 158 166 
791 155 147 54 178 
792 62 63 172 139 
793 161 60 174 59 
794 163 157 158 249 
795 147 152 146 250 
796 57 159 177 149 
797 160 115 148 58 
798 130 131 45 141 
799 130 46 142 141 
800 143 134 138 250 
801 123 127 132 249 
802 48 173 129 125 
803 55 151 175 147 
804 61 60 174 161 
805 139 63 172 64 
806 132 127 50 164 
807 143 52 153 138 
808 115 160 7 58 
809 148 115 7 58 
810 11 57 177 149 
811 11 57 159 177 
812 126 123 132 249 
813 134 143 137 250 
814 51 163 166 126 
815 155 152 137 53 
816 44 140 110 109 
817 170 129 49 173 
818 112 107 162 41 
819 169 56 151 175 
820 39 158 112 108 
821 54 175 171 147 
822 173 168 125 47 
823 106 110 42 136 
824 164 127 9 179 
825 116 153 8 138 
826 131 45 141 144 
827 133 46 142 130 
828 125 48 173 47 
829 54 55 175 147 
830 149 57 159 154 
831 58 148 160 165 
832 126 51 163 132 
833 137 152 143 53 
834 56 55 151 175 
835 173 129 49 48 
836 166 117 29 126 
837 178 64 155 137 
838 29 3 117 166 
839 155 12 64 178 
840 153 52 8 138 
841 50 127 9 164 
842 165 57 58 154 
843 51 166 3 126 
844 137 12 155 53 
845 132 51 163 50 
846 152 143 53 52 
847 128 28 27 111 
848 150 34 113 33 
849 46 130 45 141 
850 7 160 115 41 
851 149 177 11 56 
852 148 7 115 35 
853 177 159 11 61 
854 179 127 9 49 
855 116 8 44 138 
856 110 43 136 140 
857 40 162 112 158 
858 150 34 35 113 
859 128 29 28 111 
860 144 131 4 114 
861 166 29 3 126 
862 155 64 12 137 
863 110 43 42 136 
864 158 112 40 39 
865 142 176 10 133 
866 45 131 4 144 
867 46 142 10 133 
868 112 162 40 41 
869 110 43 140 44 
870 27 4 131 114 
871 176 10 62 142 
872 8 33 153 116 
873 179 9 164 59 
874 42 4 114 144 
875 176 47 10 133 
876 3 39 117 166 
877 155 54 12 178 
878 248 176 125 168 
879 248 125 176 133 
880 136 114 131 144 
881 136 131 114 106 
882 146 116 250 153 
883 250 116 146 109 
884 179 157 249 170 
885 249 157 179 164 
886 113 146 33 109 
887 33 146 113 150 
888 174 157 59 170 
889 59 157 174 161 
890 106 128 248 124 
891 106 248 128 111 
892 139 168 248 172 
893 139 248 168 135 
3 3 4 199
894 175 197 171 251 
895 196 169 204 251 
896 204 169 174 251 
897 169 167 174 251 
898 167 169 175 251 
899 202 197 175 251 
900 198 197 196 251 
901 206 204 205 251 
902 197 171 188 191 
903 205 170 183 180 
904 213 196 204 251 
905 202 196 197 251 
906 205 204 210 251 
907 171 197 188 251 
908 205 170 180 251 
909 207 199 169 196 
910 174 210 204 251 
911 216 198 196 251 
912 198 188 197 251 
913 205 180 206 251 
914 171 197 201 191 
915 170 183 209 205 
916 204 207 169 196 
917 213 200 208 196 
918 203 197 188 191 
919 205 183 211 180 
920 188 198 197 203 
921 206 205 211 180 
922 195 187 193 251 
923 174 167 170 251 
924 175 171 167 251 
925 198 216 188 251 
926 203 201 197 191 
927 183 211 209 205 
928 213 204 212 251 
929 213 212 196 251 
930 216 196 212 251 
931 170 173 186 251 
932 185 193 187 251 
933 206 215 204 251 
934 187 195 182 251 
935 195 193 189 251 
936 185 187 181 251 
937 208 204 213 196 
938 170 186 180 251 
939 188 216 198 192 
940 180 170 183 186 
941 196 199 169 202 
942 185 168 193 251 
943 198 188 192 203 
944 180 211 206 184 
945 189 193 168 251 
946 185 181 168 251 
947 168 186 181 185 
948 189 194 168 193 
949 209 170 205 210 
950 206 180 215 251 
951 208 200 73 196 
952 215 212 204 251 
953 187 182 181 251 
954 190 195 189 251 
955 201 178 171 191 
956 183 209 179 170 
957 193 168 185 176 
958 186 168 181 251 
959 189 168 194 251 
960 167 173 170 251 
961 167 171 172 251 
962 182 195 190 251 
963 196 72 198 216 
964 76 188 216 251 
965 206 215 180 184 
966 199 207 73 196 
967 204 208 73 196 
968 207 199 177 169 
969 186 173 168 251 
970 194 168 172 251 
971 190 189 188 251 
972 180 181 182 251 
973 212 75 204 213 
974 72 212 196 213 
975 212 72 196 216 
976 190 188 76 251 
977 180 182 67 251 
978 204 73 207 196 
979 76 216 212 251 
980 196 213 200 72 
981 75 208 204 213 
982 192 188 216 76 
983 75 206 215 204 
984 215 180 67 251 
985 187 66 182 195 
986 173 167 168 251 
987 168 167 172 251 
988 182 214 67 251 
989 190 76 214 251 
990 189 194 188 251 
991 186 181 180 251 
992 75 212 204 215 
993 170 209 179 59 
994 171 54 178 201 
995 186 168 47 185 
996 168 194 62 193 
997 59 170 209 210 
998 215 214 212 251 
999 215 67 214 251 
1000 212 214 76 251 
1001 76 16 216 192 
1002 72 15 213 200 
1003 15 75 213 208 
1004 184 180 211 68 
1005 71 192 188 203 
1006 193 62 168 176 
1007 168 47 185 176 
1008 64 171 178 191 
1009 49 183 179 170 
1010 190 214 182 251 
1011 171 64 172 191 
1012 174 169 207 61 
1013 56 177 199 169 
1014 169 177 207 61 
1015 186 168 173 47 
1016 59 174 170 210 
1017 172 194 62 168 
1018 215 180 184 67 
1019 184 211 206 68 
1020 71 198 192 203 
1021 174 60 61 210 
1022 172 63 194 64 
1023 56 55 175 202 
1024 48 49 173 186 
1025 194 172 64 191 
1026 61 207 174 210 
1027 203 188 71 191 
1028 180 183 211 68 
1029 190 182 66 195 
1030 195 187 65 193 
1031 62 63 194 172 
1032 59 60 174 210 
1033 173 48 186 47 
1034 202 55 175 54 
1035 207 74 199 73 
1036 67 13 184 215 
1037 187 185 65 193 
1038 16 72 216 198 
1039 178 201 70 191 
1040 209 179 69 183 
1041 12 178 201 70 
1042 209 179 9 69 
1043 185 65 193 176 
1044 199 74 207 177 
1045 193 65 10 176 
1046 65 185 10 176 
1047 201 203 70 191 
1048 69 211 209 183 
1049 12 178 70 191 
1050 69 179 9 183 
1051 183 69 211 68 
1052 70 203 71 191 
1053 11 74 199 177 
1054 74 11 207 177 
1055 13 75 206 215 
1056 67 14 214 182 
1057 14 76 214 190 
1058 216 16 198 192 
1059 15 200 208 213 
1060 182 66 14 190 
1061 65 66 187 195 
1062 178 12 64 191 
1063 183 179 9 49 
1064 177 199 11 56 
1065 11 207 177 61 
1066 185 47 10 176 
1067 193 10 62 176 
1068 178 54 12 201 
1069 9 179 209 59 
1070 192 16 198 71 
1071 184 206 13 68 
1072 200 73 15 208 
1073 215 206 13 184 
1074 214 182 14 190 
1075 175 197 201 171 
1076 201 197 175 202 
1077 201 54 175 171 
1078 175 54 201 202 
1079 170 210 251 205 
1080 251 210 170 174 
1081 202 169 251 175 
1082 202 251 169 196 
1083 204 174 207 210 
1084 204 207 174 169 
1085 191 172 188 194 
1086 191 188 172 171 
1087 251 188 172 194 
1088 251 172 188 171 
1089 186 170 49 173 
1090 186 49 170 183 
1091 169 202 56 175 
1092 56 202 169 199 
3 4 4 72
1093 78 213 221 226 
1094 75 223 213 226 
1095 219 216 229 80 
1096 222 72 229 216 
1097 213 225 75 226 
1098 226 213 225 78 
1099 212 229 72 216 
1100 216 80 212 229 
1101 223 75 79 226 
1102 213 78 221 72 
1103 219 216 80 76 
1104 72 78 222 229 
1105 225 79 75 226 
1106 212 225 75 213 
1107 213 212 225 72 
1108 78 213 225 72 
1109 229 212 72 225 
1110 72 225 78 229 
1111 212 229 80 225 
1112 80 216 212 76 
1113 227 228 212 225 
1114 225 75 79 228 
1115 212 228 75 225 
1116 228 212 75 215 
1117 212 77 227 214 
1118 215 228 212 77 
1119 212 214 227 76 
1120 80 212 225 227 
1121 77 212 215 214 
1122 228 227 212 77 
1123 80 212 227 76 
1124 67 77 215 214 
1125 75 224 79 228 
1126 228 75 224 215 
1127 228 215 217 77 
1128 218 77 214 227 
1129 227 214 220 76 
1130 77 215 217 67 
1131 218 77 67 214 
1132 220 80 227 76 
1133 223 213 226 221 
1134 216 229 222 219 
1135 16 76 216 219 
1136 75 15 213 223 
1137 72 15 221 213 
1138 16 72 222 216 
1139 219 229 20 80 
1140 79 19 223 226 
1141 221 226 19 78 
1142 20 78 229 222 
1143 67 13 215 217 
1144 13 75 215 224 
1145 18 80 227 220 
1146 14 67 214 218 
1147 77 18 227 218 
1148 76 14 214 220 
1149 17 228 217 77 
1150 79 17 228 224 
1151 213 223 15 221 
1152 216 222 16 219 
1153 19 223 226 221 
1154 229 20 222 219 
1155 218 14 18 220 
1156 227 214 218 220 
1157 224 228 215 217 
1158 14 218 214 220 
1159 227 218 18 220 
1160 215 13 224 217 
1161 223 19 15 221 
1162 13 17 224 217 
1163 20 16 222 219 
1164 228 224 17 217 
3 5 4 102
1165 246 237 236 252 
1166 240 239 241 252 
1167 236 237 238 252 
1168 226 225 239 252 
1169 226 236 225 252 
1170 226 239 236 252 
1171 236 239 243 252 
1172 236 243 242 252 
1173 242 243 239 252 
1174 246 236 242 252 
1175 240 241 230 252 
1176 237 233 238 252 
1177 240 245 239 252 
1178 237 246 233 252 
1179 229 238 233 252 
1180 85 236 246 237 
1181 236 238 78 229 
1182 242 239 245 252 
1183 242 87 239 243 
1184 225 78 236 226 
1185 79 225 239 226 
1186 85 242 236 243 
1187 242 85 236 246 
1188 78 225 236 229 
1189 245 240 230 252 
1190 230 241 228 252 
1191 237 246 84 233 
1192 237 246 24 84 
1193 225 229 80 252 
1194 84 229 238 233 
1195 87 240 245 239 
1196 241 79 228 239 
1197 229 238 20 84 
1198 88 246 242 252 
1199 234 231 232 252 
1200 80 229 233 252 
1201 239 86 226 236 
1202 239 86 236 243 
1203 79 225 228 239 
1204 87 245 242 239 
1205 232 235 234 252 
1206 88 233 246 252 
1207 234 232 231 81 
1208 234 235 232 81 
1209 77 227 232 252 
1210 227 80 235 252 
1211 83 230 245 240 
1212 245 21 83 240 
1213 225 227 228 252 
1214 77 228 227 252 
1215 80 227 225 252 
1216 88 244 234 252 
1217 82 231 244 252 
1218 86 19 239 226 
1219 226 86 19 236 
1220 86 239 23 243 
1221 236 86 23 243 
1222 84 20 229 233 
1223 84 246 24 233 
1224 230 83 228 241 
1225 84 238 237 233 
1226 230 83 241 240 
1227 77 232 230 252 
1228 235 80 233 252 
1229 17 228 83 241 
1230 245 244 242 252 
1231 242 244 88 252 
1232 245 82 244 252 
1233 233 88 234 252 
1234 82 230 231 252 
1235 77 230 228 252 
1236 23 85 236 243 
1237 239 87 23 243 
1238 236 19 226 78 
1239 239 19 79 226 
1240 233 246 24 88 
1241 233 20 229 80 
1242 230 82 245 252 
1243 232 227 235 252 
1244 244 231 234 252 
1245 228 17 83 230 
1246 230 21 83 245 
1247 246 24 85 237 
1248 20 78 238 229 
1249 245 230 21 82 
1250 228 17 230 77 
1251 234 235 233 252 
1252 230 232 231 252 
1253 232 235 18 81 
1254 82 22 244 231 
1255 234 88 22 244 
1256 231 22 234 81 
1257 80 18 227 235 
1258 18 77 227 232 
1259 18 235 232 227 
1260 240 245 21 87 
1261 17 79 228 241 
1262 22 234 244 231 
1263 236 229 252 238 
1264 252 229 236 225 
1265 228 239 252 241 
1266 252 239 228 225 
$EndElements
$Periodic
55
0 1 2
16 1 0 0 -100 0 1 0 0 0 0 1 0 0 0 0 1
1
1 2
0 3 4
16 1 0 0 -100 0 1 0 0 0 0 1 0 0 0 0 1
1
3 4
0 5 1
16 1 0 0 0 0 1 0 -100 0 0 1 0 0 0 0 1
1
5 1
0 6 2
16 1 0 0 0 0 1 0 -100 0 0 1 0 0 0 0 1
1
6 2
0 7 3
16 1 0 0 0 0 1 0 -100 0 0 1 0 0 0 0 1
1
7 3
0 8 4
16 1 0 0 0 0 1 0 -100 0 0 1 0 0 0 0 1
1
8 4
0 9 10
16 1 0 0 -100 0 1 0 0 0 0 1 0 0 0 0 1
1
9 10
0 11 9
16 1 0 0 0 0 1 0 -100 0 0 1 0 0 0 0 1
1
11 9
0 12 10
16 1 0 0 0 0 1 0 -100 0 0 1 0 0 0 0 1
1
12 10
0 13 14
16 1 0 0 -100 0 1 0 0 0 0 1 0 0 0 0 1
1
13 14
0 15 13
16 1 0 0 0 0 1 0 -100 0 0 1 0 0 0 0 1
1
15 13
0 16 14
16 1 0 0 0 0 1 0 -100 0 0 1 0 0 0 0 1
1
16 14
0 17 18
16 1 0 0 -100 0 1 0 0 0 0 1 0 0 0 0 1
1
17 18
0 19 17
16 1 0 0 0 0 1 0 -100 0 0 1 0 0 0 0 1
1
19 17
0 20 18
16 1 0 0 0 0 1 0 -100 0 0 1 0 0 0 0 1
1
20 18
0 21 22
16 1 0 0 -100 0 1 0 0 0 0 1 0 0 0 0 1
1
21 22
0 23 21
16 1 0 0 0 0 1 0 -100 0 0 1 0 0 0 0 1
1
23 21
0 24 22
16 1 0 0 0 0 1 0 -100 0 0 1 0 0 0 0 1
1
24 22
1 4 2
16 1 0 0 -100 0 1 0 0 0 0 1 0 0 0 0 1
3
1 2
3 4
30 26
1 5 1
16 1 0 0 0 0 1 0 -100 0 0 1 0 0 0 0 1
3
5 1
6 2
31 25
1 6 2
16 1 0 0 0 0 1 0 -100 0 0 1 0 0 0 0 1
3
6 2
8 4
32 26
1 7 3
16 1 0 0 0 0 1 0 -100 0 0 1 0 0 0 0 1
5
7 3
8 4
33 27
34 28
35 29
1 8 4
16 1 0 0 0 0 1 0 -100 0 0 1 0 0 0 0 1
3
5 1
7 3
36 30
1 9 10
16 1 0 0 -100 0 1 0 0 0 0 1 0 0 0 0 1
3
1 2
5 6
37 38
1 11 12
16 1 0 0 -100 0 1 0 0 0 0 1 0 0 0 0 1
5
3 4
7 8
39 42
40 43
41 44
1 15 13
16 1 0 0 -100 0 1 0 0 0 0 1 0 0 0 0 1
4
3 4
9 10
50 46
51 45
1 16 13
16 1 0 0 0 0 1 0 -100 0 0 1 0 0 0 0 1
4
8 4
12 10
52 45
53 46
1 17 14
16 1 0 0 0 0 1 0 -100 0 0 1 0 0 0 0 1
5
11 9
12 10
54 47
55 48
56 49
1 18 15
16 1 0 0 0 0 1 0 -100 0 0 1 0 0 0 0 1
4
7 3
11 9
57 50
58 51
1 19 20
16 1 0 0 -100 0 1 0 0 0 0 1 0 0 0 0 1
5
9 10
11 12
59 62
60 63
61 64
1 23 21
16 1 0 0 -100 0 1 0 0 0 0 1 0 0 0 0 1
4
9 10
13 14
68 66
69 65
1 24 21
16 1 0 0 0 0 1 0 -100 0 0 1 0 0 0 0 1
4
12 10
16 14
70 65
71 66
1 25 22
16 1 0 0 0 0 1 0 -100 0 0 1 0 0 0 0 1
3
15 13
16 14
72 67
1 26 23
16 1 0 0 0 0 1 0 -100 0 0 1 0 0 0 0 1
4
11 9
15 13
73 68
74 69
1 27 28
16 1 0 0 -100 0 1 0 0 0 0 1 0 0 0 0 1
3
13 14
15 16
75 76
1 31 29
16 1 0 0 -100 0 1 0 0 0 0 1 0 0 0 0 1
2
13 14
17 18
1 32 29
16 1 0 0 0 0 1 0 -100 0 0 1 0 0 0 0 1
2
16 14
20 18
1 33 30
16 1 0 0 0 0 1 0 -100 0 0 1 0 0 0 0 1
3
19 17
20 18
78 77
1 34 31
16 1 0 0 0 0 1 0 -100 0 0 1 0 0 0 0 1
2
15 13
19 17
1 35 36
16 1 0 0 -100 0 1 0 0 0 0 1 0 0 0 0 1
3
17 18
19 20
79 80
1 39 37
16 1 0 0 -100 0 1 0 0 0 0 1 0 0 0 0 1
3
17 18
21 22
83 81
1 40 37
16 1 0 0 0 0 1 0 -100 0 0 1 0 0 0 0 1
3
20 18
24 22
84 81
1 41 38
16 1 0 0 0 0 1 0 -100 0 0 1 0 0 0 0 1
3
23 21
24 22
85 82
1 42 39
16 1 0 0 0 0 1 0 -100 0 0 1 0 0 0 0 1
3
19 17
23 21
86 83
1 43 44
16 1 0 0 -100 0 1 0 0 0 0 1 0 0 0 0 1
3
21 22
23 24
87 88
2 3 1
16 1 0 0 0 0 1 0 -100 0 0 1 0 0 0 0 1
14
5 1
6 2
7 3
8 4
31 25
32 26
33 27
34 28
35 29
36 30
97 89
98 90
99 91
100 92
2 4 2
16 1 0 0 -100 0 1 0 0 0 0 1 0 0 0 0 1
14
1 2
3 4
5 6
7 8
30 26
36 32
37 38
39 42
40 43
41 44
101 93
102 94
103 95
104 96
2 9 7
16 1 0 0 0 0 1 0 -100 0 0 1 0 0 0 0 1
25
7 3
8 4
11 9
12 10
33 27
34 28
35 29
52 45
53 46
54 47
55 48
56 49
57 50
58 51
145 123
146 124
147 125
148 126
149 127
150 128
151 129
152 130
153 131
154 132
155 133
2 10 8
16 1 0 0 -100 0 1 0 0 0 0 1 0 0 0 0 1
25
3 4
7 8
9 10
11 12
39 42
40 43
41 44
50 46
51 45
57 53
58 52
59 62
60 63
61 64
156 134
157 135
158 136
159 137
160 138
161 139
162 140
163 141
164 142
165 143
166 144
2 14 12
16 1 0 0 0 0 1 0 -100 0 0 1 0 0 0 0 1
20
11 9
12 10
15 13
16 14
54 47
55 48
56 49
70 65
71 66
72 67
73 68
74 69
196 180
197 181
198 182
199 183
200 184
201 185
202 186
203 187
2 15 13
16 1 0 0 -100 0 1 0 0 0 0 1 0 0 0 0 1
20
9 10
11 12
13 14
15 16
59 62
60 63
61 64
68 66
69 65
73 71
74 70
75 76
204 188
205 189
206 190
207 191
208 192
209 193
210 194
211 195
2 19 17
16 1 0 0 0 0 1 0 -100 0 0 1 0 0 0 0 1
8
15 13
16 14
19 17
20 18
72 67
78 77
221 217
222 218
2 20 18
16 1 0 0 -100 0 1 0 0 0 0 1 0 0 0 0 1
8
13 14
15 16
17 18
19 20
75 76
79 80
223 219
224 220
2 24 22
16 1 0 0 0 0 1 0 -100 0 0 1 0 0 0 0 1
11
19 17
20 18
23 21
24 22
78 77
84 81
85 82
86 83
236 230
237 231
238 232
2 25 23
16 1 0 0 -100 0 1 0 0 0 0 1 0 0 0 0 1
11
17 18
19 20
21 22
23 24
79 80
83 81
86 84
87 88
239 233
240 234
241 235
$EndPeriodic
